title = "surface data"
 variables = "x/c"
"Re<greek>q</greek>"
"frequency"
"wave length"
"N<sub>factor</sub>"
zone  t = "dict_keys(  allWalls ispan = 001 upper ts wave 22000.0hz"
   0.56769E-01   0.86474E+03   0.22000E+05   0.86124E+17   0.00000E+00
   0.58946E-01   0.90045E+03   0.22000E+05   0.89684E+17   0.99284E-01
   0.61181E-01   0.93846E+03   0.22000E+05   0.93506E+17   0.15447E+00
   0.63474E-01   0.98061E+03   0.22000E+05   0.97812E+17   0.26727E+00
   0.65824E-01   0.10217E+04   0.22000E+05   0.10208E+18   0.43156E+00
   0.68233E-01   0.10574E+04   0.22000E+05   0.10579E+18   0.62679E+00
   0.70699E-01   0.10852E+04   0.22000E+05   0.10870E+18   0.82338E+00
   0.73225E-01   0.11013E+04   0.22000E+05   0.11035E+18   0.98661E+00
   0.75811E-01   0.11102E+04   0.22000E+05   0.11116E+18   0.10835E+01
   0.78458E-01   0.11161E+04   0.22000E+05   0.11160E+18   0.10918E+01
   0.81167E-01   0.11209E+04   0.22000E+05   0.11187E+18   0.10003E+01
   0.83939E-01   0.11285E+04   0.22000E+05   0.11238E+18   0.81057E+00
   0.86775E-01   0.11392E+04   0.22000E+05   0.11319E+18   0.53895E+00
   0.89676E-01   0.11528E+04   0.22000E+05   0.11429E+18   0.20990E+00
   0.92644E-01   0.11688E+04   0.22000E+05   0.11565E+18   0.00000E+00
   0.95679E-01   0.11865E+04   0.22000E+05   0.11717E+18   0.00000E+00
   0.98781E-01   0.12056E+04   0.22000E+05   0.11884E+18   0.00000E+00
   0.10195E+00   0.12257E+04   0.22000E+05   0.12061E+18   0.00000E+00
   0.10520E+00   0.12469E+04   0.22000E+05   0.12251E+18   0.00000E+00
   0.10851E+00   0.12691E+04   0.22000E+05   0.12450E+18   0.00000E+00
   0.11189E+00   0.12925E+04   0.22000E+05   0.12662E+18   0.00000E+00
   0.11535E+00   0.13168E+04   0.22000E+05   0.12885E+18   0.00000E+00
   0.11888E+00   0.13419E+04   0.22000E+05   0.13115E+18   0.00000E+00
   0.12249E+00   0.13677E+04   0.22000E+05   0.13354E+18   0.00000E+00
   0.12617E+00   0.13941E+04   0.22000E+05   0.13600E+18   0.00000E+00
   0.12992E+00   0.14213E+04   0.22000E+05   0.13854E+18   0.00000E+00
   0.13375E+00   0.14492E+04   0.22000E+05   0.14116E+18   0.00000E+00
   0.13767E+00   0.14774E+04   0.22000E+05   0.14382E+18   0.00000E+00
   0.14165E+00   0.15048E+04   0.22000E+05   0.14640E+18   0.00000E+00
   0.14572E+00   0.15313E+04   0.22000E+05   0.14889E+18   0.00000E+00
   0.14987E+00   0.15561E+04   0.22000E+05   0.15120E+18   0.00000E+00
   0.15410E+00   0.15801E+04   0.22000E+05   0.15343E+18   0.00000E+00
zone  t = "dict_keys(  allWalls ispan = 001 upper ts wave 19909.4hz"
   0.56769E-01   0.86474E+03   0.19909E+05   0.86124E+17   0.00000E+00
   0.58946E-01   0.90045E+03   0.19909E+05   0.89684E+17   0.10132E+00
   0.61181E-01   0.93846E+03   0.19909E+05   0.93506E+17   0.15308E+00
   0.63474E-01   0.98061E+03   0.19909E+05   0.97812E+17   0.26697E+00
   0.65824E-01   0.10217E+04   0.19909E+05   0.10208E+18   0.43817E+00
   0.68233E-01   0.10574E+04   0.19909E+05   0.10579E+18   0.64734E+00
   0.70699E-01   0.10852E+04   0.19909E+05   0.10870E+18   0.86625E+00
   0.73225E-01   0.11013E+04   0.19909E+05   0.11035E+18   0.10617E+01
   0.75811E-01   0.11102E+04   0.19909E+05   0.11116E+18   0.12030E+01
   0.78458E-01   0.11161E+04   0.19909E+05   0.11160E+18   0.12714E+01
   0.81167E-01   0.11209E+04   0.19909E+05   0.11187E+18   0.12595E+01
   0.83939E-01   0.11285E+04   0.19909E+05   0.11238E+18   0.11712E+01
   0.86775E-01   0.11392E+04   0.19909E+05   0.11319E+18   0.10209E+01
   0.89676E-01   0.11528E+04   0.19909E+05   0.11429E+18   0.82769E+00
   0.92644E-01   0.11688E+04   0.19909E+05   0.11565E+18   0.60852E+00
   0.95679E-01   0.11865E+04   0.19909E+05   0.11717E+18   0.37384E+00
   0.98781E-01   0.12056E+04   0.19909E+05   0.11884E+18   0.12807E+00
   0.10195E+00   0.12257E+04   0.19909E+05   0.12061E+18   0.00000E+00
   0.10520E+00   0.12469E+04   0.19909E+05   0.12251E+18   0.00000E+00
   0.10851E+00   0.12691E+04   0.19909E+05   0.12450E+18   0.00000E+00
   0.11189E+00   0.12925E+04   0.19909E+05   0.12662E+18   0.00000E+00
   0.11535E+00   0.13168E+04   0.19909E+05   0.12885E+18   0.00000E+00
   0.11888E+00   0.13419E+04   0.19909E+05   0.13115E+18   0.00000E+00
   0.12249E+00   0.13677E+04   0.19909E+05   0.13354E+18   0.00000E+00
   0.12617E+00   0.13941E+04   0.19909E+05   0.13600E+18   0.00000E+00
   0.12992E+00   0.14213E+04   0.19909E+05   0.13854E+18   0.00000E+00
   0.13375E+00   0.14492E+04   0.19909E+05   0.14116E+18   0.00000E+00
   0.13767E+00   0.14774E+04   0.19909E+05   0.14382E+18   0.00000E+00
   0.14165E+00   0.15048E+04   0.19909E+05   0.14640E+18   0.00000E+00
   0.14572E+00   0.15313E+04   0.19909E+05   0.14889E+18   0.00000E+00
   0.14987E+00   0.15561E+04   0.19909E+05   0.15120E+18   0.00000E+00
   0.15410E+00   0.15801E+04   0.19909E+05   0.15343E+18   0.00000E+00
   0.15841E+00   0.16037E+04   0.19909E+05   0.15561E+18   0.00000E+00
zone  t = "dict_keys(  allWalls ispan = 001 upper ts wave 18017.5hz"
   0.56769E-01   0.86474E+03   0.18018E+05   0.86124E+17   0.00000E+00
   0.58946E-01   0.90045E+03   0.18018E+05   0.89684E+17   0.91218E-01
   0.61181E-01   0.93846E+03   0.18018E+05   0.93506E+17   0.12856E+00
   0.63474E-01   0.98061E+03   0.18018E+05   0.97812E+17   0.23085E+00
   0.65824E-01   0.10217E+04   0.18018E+05   0.10208E+18   0.39443E+00
   0.68233E-01   0.10574E+04   0.18018E+05   0.10579E+18   0.60118E+00
   0.70699E-01   0.10852E+04   0.18018E+05   0.10870E+18   0.82404E+00
   0.73225E-01   0.11013E+04   0.18018E+05   0.11035E+18   0.10310E+01
   0.75811E-01   0.11102E+04   0.18018E+05   0.11116E+18   0.11926E+01
   0.78458E-01   0.11161E+04   0.18018E+05   0.11160E+18   0.12920E+01
   0.81167E-01   0.11209E+04   0.18018E+05   0.11187E+18   0.13235E+01
   0.83939E-01   0.11285E+04   0.18018E+05   0.11238E+18   0.12912E+01
   0.86775E-01   0.11392E+04   0.18017E+05   0.11319E+18   0.12085E+01
   0.89676E-01   0.11528E+04   0.18018E+05   0.11429E+18   0.10919E+01
   0.92644E-01   0.11688E+04   0.18018E+05   0.11565E+18   0.95596E+00
   0.95679E-01   0.11865E+04   0.18018E+05   0.11717E+18   0.81039E+00
   0.98781E-01   0.12056E+04   0.18018E+05   0.11884E+18   0.65990E+00
   0.10195E+00   0.12257E+04   0.18018E+05   0.12061E+18   0.50610E+00
   0.10520E+00   0.12469E+04   0.18018E+05   0.12251E+18   0.34919E+00
   0.10851E+00   0.12691E+04   0.18018E+05   0.12450E+18   0.18879E+00
   0.11189E+00   0.12925E+04   0.18018E+05   0.12662E+18   0.24239E-01
   0.11535E+00   0.13168E+04   0.18018E+05   0.12885E+18   0.00000E+00
   0.11888E+00   0.13419E+04   0.18018E+05   0.13115E+18   0.00000E+00
   0.12249E+00   0.13677E+04   0.18018E+05   0.13354E+18   0.00000E+00
   0.12617E+00   0.13941E+04   0.18018E+05   0.13600E+18   0.00000E+00
   0.12992E+00   0.14213E+04   0.18018E+05   0.13854E+18   0.00000E+00
   0.13375E+00   0.14492E+04   0.18018E+05   0.14116E+18   0.00000E+00
   0.13767E+00   0.14774E+04   0.18018E+05   0.14382E+18   0.00000E+00
   0.14165E+00   0.15048E+04   0.18018E+05   0.14640E+18   0.00000E+00
   0.14572E+00   0.15313E+04   0.18018E+05   0.14889E+18   0.00000E+00
   0.14987E+00   0.15561E+04   0.18018E+05   0.15120E+18   0.00000E+00
   0.15410E+00   0.15801E+04   0.18018E+05   0.15343E+18   0.00000E+00
   0.15841E+00   0.16037E+04   0.18018E+05   0.15561E+18   0.00000E+00
zone  t = "dict_keys(  allWalls ispan = 001 upper ts wave 16305.4hz"
   0.56769E-01   0.86474E+03   0.16305E+05   0.86124E+17   0.00000E+00
   0.58946E-01   0.90045E+03   0.16305E+05   0.89684E+17   0.72575E-01
   0.61181E-01   0.93846E+03   0.16305E+05   0.93506E+17   0.87945E-01
   0.63474E-01   0.98061E+03   0.16305E+05   0.97812E+17   0.16969E+00
   0.65824E-01   0.10217E+04   0.16305E+05   0.10208E+18   0.31526E+00
   0.68233E-01   0.10574E+04   0.16305E+05   0.10579E+18   0.50770E+00
   0.70699E-01   0.10852E+04   0.16305E+05   0.10870E+18   0.72111E+00
   0.73225E-01   0.11013E+04   0.16305E+05   0.11035E+18   0.92441E+00
   0.75811E-01   0.11102E+04   0.16305E+05   0.11116E+18   0.10892E+01
   0.78458E-01   0.11161E+04   0.16305E+05   0.11160E+18   0.11997E+01
   0.81167E-01   0.11209E+04   0.16305E+05   0.11187E+18   0.12506E+01
   0.83939E-01   0.11285E+04   0.16305E+05   0.11238E+18   0.12463E+01
   0.86775E-01   0.11392E+04   0.16305E+05   0.11319E+18   0.11989E+01
   0.89676E-01   0.11528E+04   0.16305E+05   0.11429E+18   0.11234E+01
   0.92644E-01   0.11688E+04   0.16305E+05   0.11565E+18   0.10331E+01
   0.95679E-01   0.11865E+04   0.16305E+05   0.11717E+18   0.93685E+00
   0.98781E-01   0.12056E+04   0.16305E+05   0.11884E+18   0.83962E+00
   0.10195E+00   0.12257E+04   0.16305E+05   0.12061E+18   0.74359E+00
   0.10520E+00   0.12469E+04   0.16305E+05   0.12251E+18   0.64971E+00
   0.10851E+00   0.12691E+04   0.16305E+05   0.12450E+18   0.55843E+00
   0.11189E+00   0.12925E+04   0.16305E+05   0.12662E+18   0.46999E+00
   0.11535E+00   0.13168E+04   0.16305E+05   0.12885E+18   0.38435E+00
   0.11888E+00   0.13419E+04   0.16305E+05   0.13115E+18   0.30055E+00
   0.12249E+00   0.13677E+04   0.16305E+05   0.13354E+18   0.21680E+00
   0.12617E+00   0.13941E+04   0.16305E+05   0.13600E+18   0.13080E+00
   0.12992E+00   0.14213E+04   0.16305E+05   0.13854E+18   0.39901E-01
   0.13375E+00   0.14492E+04   0.16305E+05   0.14116E+18   0.00000E+00
   0.13767E+00   0.14774E+04   0.16305E+05   0.14382E+18   0.00000E+00
   0.14165E+00   0.15048E+04   0.16305E+05   0.14640E+18   0.00000E+00
   0.14572E+00   0.15313E+04   0.16305E+05   0.14889E+18   0.00000E+00
   0.14987E+00   0.15561E+04   0.16305E+05   0.15120E+18   0.00000E+00
   0.15410E+00   0.15801E+04   0.16305E+05   0.15343E+18   0.00000E+00
   0.15841E+00   0.16037E+04   0.16305E+05   0.15561E+18   0.00000E+00
   0.16280E+00   0.16284E+04   0.16305E+05   0.15789E+18   0.00000E+00
zone  t = "dict_keys(  allWalls ispan = 001 upper ts wave 14756.0hz"
   0.56769E-01   0.86474E+03   0.14756E+05   0.86124E+17   0.00000E+00
   0.58946E-01   0.90045E+03   0.14756E+05   0.89684E+17   0.48135E-01
   0.61181E-01   0.93846E+03   0.14756E+05   0.93506E+17   0.36635E-01
   0.63474E-01   0.98061E+03   0.14756E+05   0.97812E+17   0.91766E-01
   0.65824E-01   0.10217E+04   0.14756E+05   0.10208E+18   0.21200E+00
   0.68233E-01   0.10574E+04   0.14756E+05   0.10579E+18   0.38161E+00
   0.70699E-01   0.10852E+04   0.14756E+05   0.10870E+18   0.57582E+00
   0.73225E-01   0.11013E+04   0.14756E+05   0.11035E+18   0.76450E+00
   0.75811E-01   0.11102E+04   0.14756E+05   0.11116E+18   0.92006E+00
   0.78458E-01   0.11161E+04   0.14756E+05   0.11160E+18   0.10273E+01
   0.81167E-01   0.11209E+04   0.14756E+05   0.11187E+18   0.10813E+01
   0.83939E-01   0.11285E+04   0.14756E+05   0.11238E+18   0.10861E+01
   0.86775E-01   0.11392E+04   0.14756E+05   0.11319E+18   0.10530E+01
   0.89676E-01   0.11528E+04   0.14756E+05   0.11429E+18   0.99566E+00
   0.92644E-01   0.11688E+04   0.14756E+05   0.11565E+18   0.92640E+00
   0.95679E-01   0.11865E+04   0.14756E+05   0.11717E+18   0.85378E+00
   0.98781E-01   0.12056E+04   0.14756E+05   0.11884E+18   0.78270E+00
   0.10195E+00   0.12257E+04   0.14756E+05   0.12061E+18   0.71569E+00
   0.10520E+00   0.12469E+04   0.14756E+05   0.12251E+18   0.65418E+00
   0.10851E+00   0.12691E+04   0.14756E+05   0.12450E+18   0.59913E+00
   0.11189E+00   0.12925E+04   0.14756E+05   0.12662E+18   0.55133E+00
   0.11535E+00   0.13168E+04   0.14756E+05   0.12885E+18   0.51134E+00
   0.11888E+00   0.13419E+04   0.14756E+05   0.13115E+18   0.47889E+00
   0.12249E+00   0.13677E+04   0.14756E+05   0.13354E+18   0.45302E+00
   0.12617E+00   0.13941E+04   0.14756E+05   0.13600E+18   0.43233E+00
   0.12992E+00   0.14213E+04   0.14756E+05   0.13854E+18   0.41520E+00
   0.13375E+00   0.14492E+04   0.14756E+05   0.14116E+18   0.40015E+00
   0.13767E+00   0.14774E+04   0.14756E+05   0.14382E+18   0.38488E+00
   0.14165E+00   0.15048E+04   0.14756E+05   0.14640E+18   0.36497E+00
   0.14572E+00   0.15313E+04   0.14756E+05   0.14889E+18   0.33402E+00
   0.14987E+00   0.15561E+04   0.14756E+05   0.15120E+18   0.28433E+00
   0.15410E+00   0.15801E+04   0.14756E+05   0.15343E+18   0.20843E+00
   0.15841E+00   0.16037E+04   0.14756E+05   0.15561E+18   0.10083E+00
   0.16280E+00   0.16284E+04   0.14756E+05   0.15789E+18   0.00000E+00
zone  t = "dict_keys(  allWalls ispan = 001 upper ts wave 13353.8hz"
   0.56769E-01   0.86474E+03   0.13354E+05   0.86124E+17   0.00000E+00
   0.58946E-01   0.90045E+03   0.13354E+05   0.89684E+17   0.51107E-01
   0.61181E-01   0.93846E+03   0.13354E+05   0.93506E+17   0.41768E-01
   0.63474E-01   0.98061E+03   0.13354E+05   0.97812E+17   0.66464E-01
   0.65824E-01   0.10217E+04   0.13354E+05   0.10208E+18   0.15646E+00
   0.68233E-01   0.10574E+04   0.13354E+05   0.10579E+18   0.29729E+00
   0.70699E-01   0.10852E+04   0.13354E+05   0.10870E+18   0.46535E+00
   0.73225E-01   0.11013E+04   0.13354E+05   0.11035E+18   0.63148E+00
   0.75811E-01   0.11102E+04   0.13354E+05   0.11116E+18   0.76885E+00
   0.78458E-01   0.11161E+04   0.13354E+05   0.11160E+18   0.86272E+00
   0.81167E-01   0.11209E+04   0.13354E+05   0.11187E+18   0.90828E+00
   0.83939E-01   0.11285E+04   0.13354E+05   0.11238E+18   0.90914E+00
   0.86775E-01   0.11392E+04   0.13354E+05   0.11319E+18   0.87592E+00
   0.89676E-01   0.11528E+04   0.13354E+05   0.11429E+18   0.82126E+00
   0.92644E-01   0.11688E+04   0.13354E+05   0.11565E+18   0.75662E+00
   0.95679E-01   0.11865E+04   0.13354E+05   0.11717E+18   0.69023E+00
   0.98781E-01   0.12056E+04   0.13354E+05   0.11884E+18   0.62698E+00
   0.10195E+00   0.12257E+04   0.13354E+05   0.12061E+18   0.56964E+00
   0.10520E+00   0.12469E+04   0.13354E+05   0.12251E+18   0.51993E+00
   0.10851E+00   0.12691E+04   0.13354E+05   0.12450E+18   0.47916E+00
   0.11189E+00   0.12925E+04   0.13354E+05   0.12662E+18   0.44849E+00
   0.11535E+00   0.13168E+04   0.13354E+05   0.12885E+18   0.42888E+00
   0.11888E+00   0.13419E+04   0.13354E+05   0.13115E+18   0.42049E+00
   0.12249E+00   0.13677E+04   0.13354E+05   0.13354E+18   0.42290E+00
   0.12617E+00   0.13941E+04   0.13354E+05   0.13600E+18   0.43528E+00
   0.12992E+00   0.14213E+04   0.13354E+05   0.13854E+18   0.45666E+00
   0.13375E+00   0.14492E+04   0.13354E+05   0.14116E+18   0.48616E+00
   0.13767E+00   0.14774E+04   0.13354E+05   0.14382E+18   0.52222E+00
   0.14165E+00   0.15048E+04   0.13354E+05   0.14640E+18   0.56127E+00
   0.14572E+00   0.15313E+04   0.13354E+05   0.14889E+18   0.59801E+00
   0.14987E+00   0.15561E+04   0.13354E+05   0.15120E+18   0.62610E+00
   0.15410E+00   0.15801E+04   0.13354E+05   0.15343E+18   0.63963E+00
   0.15841E+00   0.16037E+04   0.13354E+05   0.15561E+18   0.63472E+00
   0.16280E+00   0.16284E+04   0.13354E+05   0.15789E+18   0.61045E+00
   0.16727E+00   0.16550E+04   0.13354E+05   0.16036E+18   0.56912E+00
   0.17183E+00   0.16843E+04   0.13354E+05   0.16311E+18   0.51540E+00
   0.17647E+00   0.17166E+04   0.13354E+05   0.16619E+18   0.45481E+00
   0.18120E+00   0.17516E+04   0.13354E+05   0.16954E+18   0.39152E+00
   0.18602E+00   0.17885E+04   0.13354E+05   0.17312E+18   0.32683E+00
   0.19092E+00   0.18252E+04   0.13354E+05   0.17670E+18   0.25759E+00
   0.19591E+00   0.18612E+04   0.13354E+05   0.18022E+18   0.17586E+00
   0.20098E+00   0.18959E+04   0.13354E+05   0.18361E+18   0.71032E-01
   0.20615E+00   0.19302E+04   0.13354E+05   0.18696E+18   0.00000E+00
   0.21140E+00   0.19653E+04   0.13354E+05   0.19041E+18   0.00000E+00
   0.21675E+00   0.20021E+04   0.13354E+05   0.19403E+18   0.00000E+00
   0.22218E+00   0.20418E+04   0.13354E+05   0.19796E+18   0.00000E+00
   0.22771E+00   0.20841E+04   0.13354E+05   0.20218E+18   0.00000E+00
   0.23332E+00   0.21278E+04   0.13354E+05   0.20655E+18   0.00000E+00
   0.23903E+00   0.21711E+04   0.13354E+05   0.21091E+18   0.00000E+00
   0.24484E+00   0.22115E+04   0.13354E+05   0.21500E+18   0.00000E+00
   0.25073E+00   0.22465E+04   0.13354E+05   0.21855E+18   0.00000E+00
   0.25672E+00   0.22768E+04   0.13354E+05   0.22161E+18   0.00000E+00
   0.26281E+00   0.23034E+04   0.13354E+05   0.22429E+18   0.00000E+00
   0.26899E+00   0.23287E+04   0.13354E+05   0.22680E+18   0.00000E+00
   0.27526E+00   0.23556E+04   0.13354E+05   0.22947E+18   0.00000E+00
zone  t = "dict_keys(  allWalls ispan = 001 upper ts wave 12084.8hz"
   0.56769E-01   0.86474E+03   0.12085E+05   0.86124E+17   0.00000E+00
   0.58946E-01   0.90045E+03   0.12085E+05   0.89684E+17   0.20510E-01
   0.61181E-01   0.93846E+03   0.12085E+05   0.93506E+17   0.00000E+00
   0.63474E-01   0.98061E+03   0.12085E+05   0.97812E+17   0.13115E-01
   0.65824E-01   0.10217E+04   0.12085E+05   0.10208E+18   0.69917E-01
   0.68233E-01   0.10574E+04   0.12085E+05   0.10579E+18   0.17808E+00
   0.70699E-01   0.10852E+04   0.12085E+05   0.10870E+18   0.31526E+00
   0.73225E-01   0.11013E+04   0.12085E+05   0.11035E+18   0.45332E+00
   0.75811E-01   0.11102E+04   0.12085E+05   0.11116E+18   0.56621E+00
   0.78458E-01   0.11161E+04   0.12085E+05   0.11160E+18   0.63961E+00
   0.81167E-01   0.11209E+04   0.12085E+05   0.11187E+18   0.66870E+00
   0.83939E-01   0.11285E+04   0.12085E+05   0.11238E+18   0.65672E+00
   0.86775E-01   0.11392E+04   0.12085E+05   0.11319E+18   0.61354E+00
   0.89676E-01   0.11528E+04   0.12085E+05   0.11429E+18   0.55091E+00
   0.92644E-01   0.11688E+04   0.12085E+05   0.11565E+18   0.47963E+00
   0.95679E-01   0.11865E+04   0.12085E+05   0.11717E+18   0.40758E+00
   0.98781E-01   0.12056E+04   0.12085E+05   0.11884E+18   0.33963E+00
   0.10195E+00   0.12257E+04   0.12085E+05   0.12061E+18   0.27867E+00
   0.10520E+00   0.12469E+04   0.12085E+05   0.12251E+18   0.22665E+00
   0.10851E+00   0.12691E+04   0.12085E+05   0.12450E+18   0.18511E+00
   0.11189E+00   0.12925E+04   0.12085E+05   0.12662E+18   0.15546E+00
   0.11535E+00   0.13168E+04   0.12085E+05   0.12885E+18   0.13893E+00
   0.11888E+00   0.13419E+04   0.12085E+05   0.13115E+18   0.13603E+00
   0.12249E+00   0.13677E+04   0.12085E+05   0.13354E+18   0.14670E+00
   0.12617E+00   0.13941E+04   0.12085E+05   0.13600E+18   0.17053E+00
   0.12992E+00   0.14213E+04   0.12085E+05   0.13854E+18   0.20696E+00
   0.13375E+00   0.14492E+04   0.12085E+05   0.14116E+18   0.25554E+00
   0.13767E+00   0.14774E+04   0.12085E+05   0.14382E+18   0.31518E+00
   0.14165E+00   0.15048E+04   0.12085E+05   0.14640E+18   0.38286E+00
   0.14572E+00   0.15313E+04   0.12085E+05   0.14889E+18   0.45398E+00
   0.14987E+00   0.15561E+04   0.12085E+05   0.15120E+18   0.52297E+00
   0.15410E+00   0.15801E+04   0.12085E+05   0.15343E+18   0.58470E+00
   0.15841E+00   0.16037E+04   0.12085E+05   0.15561E+18   0.63608E+00
   0.16280E+00   0.16284E+04   0.12085E+05   0.15789E+18   0.67676E+00
   0.16727E+00   0.16550E+04   0.12085E+05   0.16036E+18   0.70944E+00
   0.17183E+00   0.16843E+04   0.12085E+05   0.16311E+18   0.73895E+00
   0.17647E+00   0.17166E+04   0.12085E+05   0.16619E+18   0.77096E+00
   0.18120E+00   0.17516E+04   0.12085E+05   0.16954E+18   0.80990E+00
   0.18602E+00   0.17885E+04   0.12085E+05   0.17312E+18   0.85754E+00
   0.19092E+00   0.18252E+04   0.12085E+05   0.17670E+18   0.91157E+00
   0.19591E+00   0.18612E+04   0.12085E+05   0.18022E+18   0.96555E+00
   0.20098E+00   0.18959E+04   0.12085E+05   0.18361E+18   0.10112E+01
   0.20615E+00   0.19302E+04   0.12085E+05   0.18696E+18   0.10408E+01
   0.21140E+00   0.19653E+04   0.12085E+05   0.19041E+18   0.10498E+01
   0.21675E+00   0.20021E+04   0.12085E+05   0.19403E+18   0.10371E+01
   0.22218E+00   0.20418E+04   0.12085E+05   0.19796E+18   0.10054E+01
   0.22771E+00   0.20841E+04   0.12085E+05   0.20218E+18   0.96079E+00
   0.23332E+00   0.21278E+04   0.12085E+05   0.20655E+18   0.91038E+00
   0.23903E+00   0.21711E+04   0.12085E+05   0.21091E+18   0.85870E+00
   0.24484E+00   0.22115E+04   0.12085E+05   0.21500E+18   0.80510E+00
   0.25073E+00   0.22465E+04   0.12085E+05   0.21855E+18   0.74231E+00
   0.25672E+00   0.22768E+04   0.12085E+05   0.22161E+18   0.65799E+00
